# k (h/Mpc)  T(k) (Mpc^2)
0.105234E-04 0.198351E+08
0.116201E-04 0.198351E+08
0.128311E-04 0.198351E+08
0.141684E-04 0.198351E+08
0.156450E-04 0.198351E+08
0.172755E-04 0.198350E+08
0.190759E-04 0.198350E+08
0.210640E-04 0.198350E+08
0.232593E-04 0.198350E+08
0.256833E-04 0.198350E+08
0.283600E-04 0.198349E+08
0.313157E-04 0.198349E+08
0.345794E-04 0.198348E+08
0.381832E-04 0.198348E+08
0.421626E-04 0.198347E+08
0.465567E-04 0.198346E+08
0.514088E-04 0.198345E+08
0.567666E-04 0.198343E+08
0.626827E-04 0.198342E+08
0.692154E-04 0.198340E+08
0.764290E-04 0.198337E+08
0.843944E-04 0.198334E+08
0.931898E-04 0.198330E+08
0.102902E-03 0.198325E+08
0.113626E-03 0.198320E+08
0.125468E-03 0.198313E+08
0.138544E-03 0.198305E+08
0.152983E-03 0.198295E+08
0.168927E-03 0.198282E+08
0.186533E-03 0.198267E+08
0.205973E-03 0.198249E+08
0.227439E-03 0.198227E+08
0.251143E-03 0.198201E+08
0.277316E-03 0.198168E+08
0.306218E-03 0.198129E+08
0.338132E-03 0.198082E+08
0.373371E-03 0.198025E+08
0.412284E-03 0.197957E+08
0.455251E-03 0.197875E+08
0.502697E-03 0.197778E+08
0.555088E-03 0.197661E+08
0.612938E-03 0.197523E+08
0.676818E-03 0.197360E+08
0.747355E-03 0.197169E+08
0.825244E-03 0.196944E+08
0.911250E-03 0.196682E+08
0.100622E-02 0.196378E+08
0.111109E-02 0.196026E+08
0.122688E-02 0.195620E+08
0.135475E-02 0.195153E+08
0.149594E-02 0.194618E+08
0.165184E-02 0.194005E+08
0.182399E-02 0.193307E+08
0.201409E-02 0.192512E+08
0.222400E-02 0.191611E+08
0.245578E-02 0.190592E+08
0.271172E-02 0.189443E+08
0.299433E-02 0.188152E+08
0.330639E-02 0.186705E+08
0.365098E-02 0.185088E+08
0.403148E-02 0.183289E+08
0.445164E-02 0.181293E+08
0.491559E-02 0.179086E+08
0.542788E-02 0.176653E+08
0.599357E-02 0.173980E+08
0.661821E-02 0.171052E+08
0.730796E-02 0.167856E+08
0.806958E-02 0.164376E+08
0.891059E-02 0.160600E+08
0.983924E-02 0.156512E+08
0.108647E-01 0.152100E+08
0.119970E-01 0.147350E+08
0.132473E-01 0.142251E+08
0.146279E-01 0.136792E+08
0.161524E-01 0.130969E+08
0.178358E-01 0.124783E+08
0.196946E-01 0.118243E+08
0.217472E-01 0.111375E+08
0.240136E-01 0.104225E+08
0.265163E-01 0.968667E+07
0.292798E-01 0.894051E+07
0.323313E-01 0.819830E+07
0.357009E-01 0.747766E+07
0.394216E-01 0.679821E+07
0.435300E-01 0.617873E+07
0.478830E-01 0.565050E+07
0.522360E-01 0.523402E+07
0.565890E-01 0.489467E+07
0.609421E-01 0.460795E+07
0.652951E-01 0.435082E+07
0.696481E-01 0.410721E+07
0.740011E-01 0.386758E+07
0.783541E-01 0.362916E+07
0.827071E-01 0.339453E+07
0.870601E-01 0.316917E+07
0.914131E-01 0.295905E+07
0.968283E-01 0.272680E+07
0.102244E+00 0.253334E+07
0.107659E+00 0.237967E+07
0.113074E+00 0.225929E+07
0.118489E+00 0.216099E+07
0.123905E+00 0.207337E+07
0.129320E+00 0.198751E+07
0.134735E+00 0.189791E+07
0.140150E+00 0.180318E+07
0.145566E+00 0.170568E+07
0.150981E+00 0.160981E+07
0.156396E+00 0.152025E+07
0.161811E+00 0.144100E+07
0.167227E+00 0.137432E+07
0.172642E+00 0.131984E+07
0.178057E+00 0.127481E+07
0.183472E+00 0.123551E+07
0.188888E+00 0.119847E+07
0.194303E+00 0.116094E+07
0.199718E+00 0.112127E+07
0.205133E+00 0.107928E+07
0.210549E+00 0.103616E+07
0.215964E+00 0.993774E+06
0.221379E+00 0.953895E+06
0.226794E+00 0.917860E+06
0.232210E+00 0.886300E+06
0.237625E+00 0.859041E+06
0.243040E+00 0.835244E+06
0.248455E+00 0.813708E+06
0.253871E+00 0.793149E+06
0.259286E+00 0.772491E+06
0.264701E+00 0.751147E+06
0.270116E+00 0.729137E+06
0.275532E+00 0.706906E+06
0.280947E+00 0.685043E+06
0.286362E+00 0.664133E+06
0.291777E+00 0.644680E+06
0.297192E+00 0.626979E+06
0.302608E+00 0.611001E+06
0.308023E+00 0.596432E+06
0.313438E+00 0.582839E+06
0.318853E+00 0.569800E+06
0.324269E+00 0.556957E+06
0.329684E+00 0.544073E+06
0.335099E+00 0.531085E+06
0.340514E+00 0.518110E+06
0.345930E+00 0.505361E+06
0.351345E+00 0.493053E+06
0.356760E+00 0.481353E+06
0.362175E+00 0.470361E+06
0.367591E+00 0.460086E+06
0.373006E+00 0.450444E+06
0.378421E+00 0.441294E+06
0.383836E+00 0.432484E+06
0.389252E+00 0.423888E+06
0.394667E+00 0.415414E+06
0.400082E+00 0.407015E+06
0.405497E+00 0.398705E+06
0.410913E+00 0.390550E+06
0.416328E+00 0.382627E+06
0.421743E+00 0.374987E+06
0.427158E+00 0.367659E+06
0.432574E+00 0.360654E+06
0.437989E+00 0.353966E+06
0.443404E+00 0.347549E+06
0.448819E+00 0.341340E+06
0.454235E+00 0.335289E+06
0.459650E+00 0.329370E+06
0.465065E+00 0.323565E+06
0.470480E+00 0.317860E+06
0.475896E+00 0.312261E+06
0.481311E+00 0.306794E+06
0.486726E+00 0.301485E+06
0.492141E+00 0.296342E+06
0.497557E+00 0.291364E+06
0.502972E+00 0.286547E+06
0.508387E+00 0.281885E+06
0.513802E+00 0.277361E+06
0.519218E+00 0.272952E+06
0.524633E+00 0.268640E+06
0.530048E+00 0.264420E+06
0.535463E+00 0.260288E+06
0.540879E+00 0.256241E+06
0.546294E+00 0.252279E+06
0.551709E+00 0.248409E+06
0.557124E+00 0.244639E+06
0.562540E+00 0.240969E+06
0.567955E+00 0.237393E+06
0.573370E+00 0.233908E+06
0.578785E+00 0.230511E+06
0.630078E+00 0.201774E+06
0.769579E+00 0.146890E+06
0.939966E+00 0.106402E+06
0.114808E+01 0.767267E+05
0.140226E+01 0.551024E+05
0.171273E+01 0.394247E+05
0.209193E+01 0.281115E+05
0.255509E+01 0.199821E+05
0.312080E+01 0.141630E+05
0.381175E+01 0.100121E+05
0.465568E+01 0.706056E+04
0.568646E+01 0.496797E+04
0.694546E+01 0.348832E+04
0.848320E+01 0.244465E+04
0.103614E+02 0.171017E+04
0.126554E+02 0.119434E+04
0.154574E+02 0.832784E+03
0.188797E+02 0.579809E+03
0.230597E+02 0.403103E+03
0.281652E+02 0.279861E+03
0.344011E+02 0.194031E+03
0.420176E+02 0.134336E+03
0.513204E+02 0.928687E+02
0.626829E+02 0.640975E+02
0.765610E+02 0.441566E+02
0.935118E+02 0.303502E+02
0.114216E+03 0.208007E+02
